ti:	 exported from NMRproc 
##freq 150.98613678
6.421796407039577025e+04 6.961036095159346667e-15
6.421296118873593514e+04 9.036892220351503401e-15
6.420795830707610003e+04 1.042146703495328509e-14
6.420295542541626492e+04 1.103815014406159994e-14
6.419795254375642253e+04 1.089942488609231501e-14
6.419294966209658742e+04 1.009847903405564923e-14
6.418794678043675231e+04 8.791838018491562321e-15
6.418294389877691719e+04 7.175388868937604173e-15
6.417794101711708208e+04 5.457130471484849515e-15
6.417293813545724697e+04 3.830094088854072974e-15
6.416793525379741186e+04 2.448777479753270721e-15
6.416293237213757675e+04 1.411956123538760088e-15
6.415792949047773436e+04 7.538140907517036526e-16
6.415292660881789925e+04 4.441839584875391027e-16
6.414792372715806414e+04 3.976171592015593739e-16
6.414292084549822903e+04 4.896285729810197611e-16
6.413791796383839392e+04 5.781650835064657044e-16
6.413291508217855881e+04 5.267922376264036383e-16
6.412791220051872369e+04 2.269444610706449604e-16
6.412290931885888858e+04 -3.839961575822599297e-16
6.411790643719904620e+04 -1.311214885994203341e-15
6.411290355553921108e+04 -2.498865617526057966e-15
6.410790067387937597e+04 -3.835078137173861955e-15
6.410289779221954086e+04 -5.164913551518084614e-15
6.409789491055970575e+04 -6.309449169401577369e-15
6.409289202889987064e+04 -7.088849073422261007e-15
6.408788914724003553e+04 -7.346301482437950970e-15
6.408288626558019314e+04 -6.969796875746305355e-15
6.407788338392035803e+04 -5.909076853054296607e-15
6.407288050226052292e+04 -4.185424229392080226e-15
6.406787762060068781e+04 -1.893094788124114491e-15
6.406287473894085269e+04 8.080427034485392879e-16
6.405787185728101758e+04 3.707752728855274327e-15
6.405286897562118247e+04 6.566824186362610996e-15
6.404786609396134736e+04 9.142315677202693522e-15
6.404286321230150497e+04 1.121355923593740585e-14
6.403786033064166986e+04 1.260596612647028597e-14
6.403285744898183475e+04 1.320984858973864420e-14
6.402785456732199964e+04 1.299227630648673424e-14
6.402285168566216453e+04 1.200034234197218622e-14
6.401784880400232942e+04 1.035583857260575206e-14
6.401284592234249430e+04 8.241843642879556053e-15
6.400784304068265192e+04 5.882840946526213715e-15
6.400284015902281681e+04 3.520734828781201064e-15
6.399783727736298169e+04 1.389473731661450712e-15
6.399283439570314658e+04 -3.089026469504065898e-16
6.398783151404331147e+04 -1.424122154530543711e-15
6.398282863238347636e+04 -1.871355359971493869e-15
6.397782575072364125e+04 -1.637430135570958236e-15
6.397282286906380614e+04 -7.791677278567177863e-16
6.396781998740396375e+04 5.857959400954595795e-16
6.396281710574412864e+04 2.294357113099929310e-15
6.395781422408429353e+04 4.157338652757741043e-15
6.395281134242445842e+04 5.980919897390635268e-15
6.394780846076462331e+04 7.587222948579307774e-15
6.394280557910478819e+04 8.832174757377805873e-15
6.393780269744495308e+04 9.618470293468258747e-15
6.393279981578511797e+04 9.902592004518099351e-15
6.392779693412527558e+04 9.695436691822765900e-15
6.392279405246544047e+04 9.056805196014263529e-15
6.391779117080560536e+04 8.084776467957011424e-15
6.391278828914577025e+04 6.901560301156894513e-15
6.390778540748593514e+04 5.637709352611617877e-15
6.390278252582610003e+04 4.416586557441428335e-15
6.389777964416626492e+04 3.341053695488431761e-15
6.389277676250642253e+04 2.483719992430052944e-15
6.388777388084658742e+04 1.881656242446089026e-15
6.388277099918675231e+04 1.536046543972763683e-15
6.387776811752691719e+04 1.416243643366653288e-15
6.387276523586708208e+04 1.467624228452180751e-15
6.386776235420724697e+04 1.621804679736091308e-15
6.386275947254741186e+04 1.807785526277786790e-15
6.385775659088757675e+04 1.962523200355213814e-15
6.385275370922773436e+04 2.039574729969841516e-15
6.384775082756789925e+04 2.014716402014620181e-15
6.384274794590806414e+04 1.888064304571532340e-15
6.383774506424822903e+04 1.682456832969301150e-15
6.383274218258839392e+04 1.438702817627566079e-15
6.382773930092855881e+04 1.208252496481044939e-15
6.382273641926872369e+04 1.044583779296417932e-15
6.381773353760888858e+04 9.944879023181652904e-16
6.381273065594904620e+04 1.090330222803053606e-15
6.380772777428921108e+04 1.344516687112297356e-15
6.380272489262937597e+04 1.746715455949439007e-15
6.379772201096954086e+04 2.264112298140712437e-15
6.379271912930970575e+04 2.844862276272658874e-15
6.378771624764987064e+04 3.423940586024054333e-15
6.378271336599003553e+04 3.930788891165836551e-15
6.377771048433019314e+04 4.297782014340368539e-15
6.377270760267035803e+04 4.468299928361973387e-15
6.376770472101052292e+04 4.403584692259369815e-15
6.376270183935068781e+04 4.087469105815107390e-15
6.375769895769085269e+04 3.528458555835781181e-15
6.375269607603101758e+04 2.759042226865607088e-15
6.374769319437118247e+04 1.832272372370663157e-15
6.374269031271134736e+04 8.161688691873259615e-16
6.373768743105150497e+04 -2.134163299169316845e-16
6.373268454939166986e+04 -1.180669968201963656e-15
6.372768166773183475e+04 -2.017401906311152356e-15
6.372267878607199964e+04 -2.669654403738954861e-15
6.371767590441216453e+04 -3.102647471123365243e-15
6.371267302275232942e+04 -3.303611419446289256e-15
6.370767014109249430e+04 -3.282305386799737961e-15
6.370266725943265192e+04 -3.069260538745150678e-15
6.369766437777281681e+04 -2.712189076977403876e-15
6.369266149611298169e+04 -2.270845406895706760e-15
6.368765861445314658e+04 -1.811066949395163205e-15
6.368265573279331147e+04 -1.398544080467029615e-15
6.367765285113347636e+04 -1.092930595839465231e-15
6.367264996947364125e+04 -9.427745313976204350e-16
6.366764708781380614e+04 -9.816872564782098514e-16
6.366264420615396375e+04 -1.225866928120548063e-15
6.365764132449412864e+04 -1.673146568794291392e-15
6.365263844283429353e+04 -2.303489375549232571e-15
6.364763556117445842e+04 -3.080730041245038125e-15
6.364263267951462331e+04 -3.955422782162558221e-15
6.363762979785478819e+04 -4.868455546956219880e-15
6.363262691619495308e+04 -5.755190491578075472e-15
6.362762403453511797e+04 -6.549991414475126174e-15
6.362262115287527558e+04 -7.190642842910126724e-15
6.361761827121544047e+04 -7.622784597693330034e-15
6.361261538955560536e+04 -7.803765917504305347e-15
6.360761250789577025e+04 -7.706066187707694160e-15
6.360260962623593514e+04 -7.319825660540436434e-15
6.359760674457610003e+04 -6.654393296204868124e-15
6.359260386291626492e+04 -5.738620852676416512e-15
6.358760098125642253e+04 -4.619918702636799698e-15
6.358259809959658742e+04 -3.361763809314139604e-15
6.357759521793675231e+04 -2.039861080572065147e-15
6.357259233627691719e+04 -7.370200148915448296e-16
6.356758945461708208e+04 4.630908374397825437e-16
6.356258657295724697e+04 1.482615069438875862e-15
6.355758369129741186e+04 2.256396310291598111e-15
6.355258080963757675e+04 2.738316634628968845e-15
6.354757792797773436e+04 2.906443134161729757e-15
6.354257504631789925e+04 2.766417689674239216e-15
6.353757216465806414e+04 2.352718461515348136e-15
6.353256928299822903e+04 1.727243614998213406e-15
6.352756640133839392e+04 9.754417176675426341e-16
6.352256351967855881e+04 1.999655908178735364e-16
6.351756063801872369e+04 -4.875389875053318270e-16
6.351255775635888858e+04 -9.759370268173351367e-16
6.350755487469904620e+04 -1.164386679902528524e-15
6.350255199303921108e+04 -9.715953325511835665e-16
6.349754911137937597e+04 -3.435355914085684001e-16
6.349254622971954086e+04 7.411991858429207965e-16
6.348754334805970575e+04 2.268980258378518887e-15
6.348254046639987064e+04 4.191793595490195371e-15
6.347753758474003553e+04 6.431272002634186928e-15
6.347253470308019314e+04 8.885335359720400265e-15
6.346753182142035803e+04 1.143689722726112368e-14
6.346252893976052292e+04 1.396382520380512464e-14
6.345752605810068781e+04 1.634884710893351560e-14
6.345252317644085269e+04 1.848856715762706962e-14
6.344752029478101758e+04 2.030058602929448966e-14
6.344251741312118247e+04 2.172803604217520454e-14
6.343751453146134736e+04 2.274119864728164515e-14
6.343251164980150497e+04 2.333617328505920096e-14
6.342750876814166986e+04 2.353099230424250950e-14
6.342250588648183475e+04 2.335985525378366422e-14
6.341750300482199964e+04 2.286635707806989166e-14
6.341250012316216453e+04 2.209668535531935592e-14
6.340749724150232942e+04 2.109384685030390232e-14
6.340249435984249430e+04 1.989359669227419632e-14
6.339749147818265192e+04 1.852267383611357675e-14
6.339248859652281681e+04 1.699944341639169910e-14
6.338748571486298169e+04 1.533686086305783110e-14
6.338248283320314658e+04 1.354702255425456443e-14
6.337747995154331147e+04 1.164667613060926416e-14
6.337247706988347636e+04 9.662576025416205425e-15
6.336747418822364125e+04 7.635647157177009832e-15
6.336247130656380614e+04 5.623237038391112643e-15
6.335746842490396375e+04 3.698666901638764236e-15
6.335246554324412864e+04 1.947919319641794466e-15
6.334746266158429353e+04 4.636016250005062346e-16
6.334245977992445842e+04 -6.633118220380179009e-16
6.333745689826462331e+04 -1.352882768220514687e-15
6.333245401660478819e+04 -1.545751507626514403e-15
6.332745113494495308e+04 -1.211472005954697390e-15
6.332244825328511797e+04 -3.544943063477319591e-16
6.331744537162527558e+04 9.831731839275879510e-16
6.331244248996544047e+04 2.723163270327498426e-15
6.330743960830560536e+04 4.755881064254896508e-15
6.330243672664577025e+04 6.949287981262700592e-15
6.329743384498593514e+04 9.160177763417093094e-15
6.329243096332610003e+04 1.124705451719213913e-14
6.328742808166626492e+04 1.308277083599495401e-14
6.328242520000642253e+04 1.456567999524152126e-14
6.327742231834658742e+04 1.562782403173918040e-14
6.327241943668675231e+04 1.623919030669268907e-14
6.326741655502691719e+04 1.640750254715662306e-14
6.326241367336708208e+04 1.617363149719434501e-14
6.325741079170724697e+04 1.560325205438618427e-14
6.325240791004741186e+04 1.477585359806840132e-14
6.324740502838757675e+04 1.377267456801246710e-14
6.324240214672773436e+04 1.266520974430877149e-14
6.323739926506789925e+04 1.150594641842441343e-14
6.323239638340806414e+04 1.032259868513138201e-14
6.322739350174822903e+04 9.116954300892215076e-15
6.322239062008839392e+04 7.868233499032013851e-15
6.321738773842855881e+04 6.540905587258615294e-15
6.321238485676872369e+04 5.095655401807226390e-15
6.320738197510888858e+04 3.502029169171061000e-15
6.320237909344904620e+04 1.750755321202435759e-15
6.319737621178921108e+04 -1.361867985765972893e-16
6.319237333012937597e+04 -2.099739313258723858e-15
6.318737044846954086e+04 -4.043293721017970168e-15
6.318236756680970575e+04 -5.838456603181508015e-15
6.317736468514987064e+04 -7.336828694948164721e-15
6.317236180349003553e+04 -8.386868614097767946e-15
6.316735892183019314e+04 -8.853937403146822291e-15
6.316235604017035803e+04 -8.641256297749114186e-15
6.315735315851052292e+04 -7.708999346579123374e-15
6.315235027685068781e+04 -6.088734768730668930e-15
6.314734739519085269e+04 -3.890986157456712881e-15
6.314234451353101758e+04 -1.303940032856622950e-15
6.313734163187118247e+04 1.417234261666238885e-15
6.313233875021134736e+04 3.970282056656338823e-15
6.312733586855150497e+04 6.033383971241334471e-15
6.312233298689166986e+04 7.297993361922231049e-15
6.311733010523183475e+04 7.503453788620616148e-15
6.311232722357199964e+04 6.469751332208707609e-15
6.310732434191216453e+04 4.124539899994904532e-15
6.310232146025232942e+04 5.210574863764600133e-16
6.309731857859249430e+04 -4.155883682130224334e-15
6.309231569693265192e+04 -9.597001737506931356e-15
6.308731281527281681e+04 -1.538906954312816629e-14
6.308230993361298169e+04 -2.104737292148350869e-14
6.307730705195314658e+04 -2.605737853640392715e-14
6.307230417029331147e+04 -2.992182695831939759e-14
6.306730128863347636e+04 -3.220856869324127141e-14
6.306229840697364125e+04 -3.259420556238221792e-14
6.305729552531380614e+04 -3.089929634781890853e-14
6.305229264365396375e+04 -2.711082370595835551e-14
6.304728976199412864e+04 -2.138972441445585400e-14
6.304228688033429353e+04 -1.406204346036792491e-14
6.303728399867445842e+04 -5.594540064524998031e-15
6.303228111701462331e+04 3.443358252537021958e-15
6.302727823535478819e+04 1.242749230923013713e-14
6.302227535369495308e+04 2.073217830048964230e-14
6.301727247203511797e+04 2.778370892515720715e-14
6.301226959037527558e+04 3.310861507126380140e-14
6.300726670871544047e+04 3.637244697461736712e-14
6.300226382705560536e+04 3.740503498544224667e-14
6.299726094539577025e+04 3.621034931614224113e-14
6.299225806373593514e+04 3.296018484964076753e-14
6.298725518207610003e+04 2.797279319309057729e-14
6.298225230041626492e+04 2.167900817555119442e-14
6.297724941875642980e+04 1.457977308839421455e-14
6.297224653709658742e+04 7.199519711579067548e-15
6.296724365543675231e+04 4.028256444798482429e-17
6.296224077377691719e+04 -6.458900966146060198e-15
6.295723789211708208e+04 -1.195356658413863935e-14
6.295223501045724697e+04 -1.621358901501277898e-14
6.294723212879741186e+04 -1.913011633389606963e-14
6.294222924713757675e+04 -2.070978877907792045e-14
6.293722636547773436e+04 -2.105784406647834731e-14
6.293222348381789925e+04 -2.035297271109053332e-14
6.292722060215806414e+04 -1.881742147626756392e-14
6.292221772049822903e+04 -1.668623003199700273e-14
6.291721483883839392e+04 -1.417922277032122611e-14
6.291221195717855881e+04 -1.147898302658257297e-14
6.290720907551872369e+04 -8.716953466407277311e-15
6.290220619385888858e+04 -5.968568125467679555e-15
6.289720331219904620e+04 -3.257470276460913211e-15
6.289220043053921108e+04 -5.671754117454400647e-16
6.288719754887937597e+04 2.141887026223896716e-15
6.288219466721954086e+04 4.912925021561046130e-15
6.287719178555970575e+04 7.773877105996503043e-15
6.287218890389987064e+04 1.072203455761733751e-14
6.286718602224003553e+04 1.371437513324077342e-14
6.286218314058019314e+04 1.666499365219964119e-14
6.285718025892035803e+04 1.945002413101843413e-14
6.285217737726052292e+04 2.191944207174822057e-14
6.284717449560068781e+04 2.391393592988146475e-14
6.284217161394085269e+04 2.528478913319289377e-14
6.283716873228101758e+04 2.591372340455311141e-14
6.283216585062118247e+04 2.573021910376037963e-14
6.282716296896134736e+04 2.472377412899799979e-14
6.282216008730150497e+04 2.294936005668749519e-14
6.281715720564166986e+04 2.052518551110908416e-14
6.281215432398183475e+04 1.762308407121350479e-14
6.280715144232199964e+04 1.445232385278817900e-14
6.280214856066216453e+04 1.123899026509707484e-14
6.279714567900232942e+04 8.203480401387019876e-15
6.279214279734249430e+04 5.538616565831214734e-15
6.278713991568265192e+04 3.391312095781460499e-15
6.278213703402281681e+04 1.849739759106321570e-15
6.277713415236298169e+04 9.376511773794521400e-16
6.277213127070314658e+04 6.163348448623660709e-16
6.276712838904331147e+04 7.937251733373440629e-16
6.276212550738347636e+04 1.339579074025301151e-15
6.275712262572364125e+04 2.104398314948961435e-15
6.275211974406380614e+04 2.939760413690754961e-15
6.274711686240396375e+04 3.717403518070766677e-15
6.274211398074412864e+04 4.344627425023106748e-15
6.273711109908429353e+04 4.774060457893382482e-15
6.273210821742445842e+04 5.006724191803039682e-15
6.272710533576462331e+04 5.088148372505680936e-15
6.272210245410478819e+04 5.098155165172586277e-15
6.271709957244495308e+04 5.135899270227883601e-15
6.271209669078511797e+04 5.302299926941835756e-15
6.270709380912527558e+04 5.682186566421909918e-15
6.270209092746544047e+04 6.328859096709079202e-15
6.269708804580560536e+04 7.252935707702025167e-15
6.269208516414577025e+04 8.417275952371760915e-15
6.268708228248593514e+04 9.738520848649265985e-15
6.268207940082610003e+04 1.109525774119160593e-14
6.267707651916626492e+04 1.234167999902855074e-14
6.267207363750642980e+04 1.332495379262718905e-14
6.266707075584658742e+04 1.390417914728243217e-14
6.266206787418675231e+04 1.396824429012593215e-14
6.265706499252691719e+04 1.345048370527777935e-14
6.265206211086708208e+04 1.233801161563789974e-14
6.264705922920724697e+04 1.067461644573015047e-14
6.264205634754741186e+04 8.556767391682130785e-15
6.263705346588757675e+04 6.123313538750571976e-15
6.263205058422773436e+04 3.540075103239513142e-15
6.262704770256789925e+04 9.814241234923826090e-16
6.262204482090806414e+04 -1.388839116813278895e-15
6.261704193924822903e+04 -3.434945736196011654e-15
6.261203905758839392e+04 -5.062547080825770847e-15
6.260703617592855881e+04 -6.226631931715144158e-15
6.260203329426872369e+04 -6.932919561703144319e-15
6.259703041260888858e+04 -7.232628032560523880e-15
6.259202753094904620e+04 -7.211678003365385577e-15
6.258702464928921108e+04 -6.975609019050903245e-15
6.258202176762937597e+04 -6.632630650435851706e-15
6.257701888596954086e+04 -6.277114768966672562e-15
6.257201600430970575e+04 -5.975695933701414643e-15
6.256701312264987064e+04 -5.758224260120556030e-15
6.256201024099003553e+04 -5.614654259529860846e-15
6.255700735933019314e+04 -5.498434611054281487e-15
6.255200447767035803e+04 -5.335957731511343552e-15
6.254700159601052292e+04 -5.040737999823960469e-15
6.254199871435068781e+04 -4.530445748250026528e-15
6.253699583269085269e+04 -3.744243082625159206e-15
6.253199295103101758e+04 -2.658014638718826315e-15
6.252699006937118247e+04 -1.295086381804078514e-15
6.252198718771134736e+04 2.692779149669902043e-16
6.251698430605150497e+04 1.910678262941755436e-15
6.251198142439166986e+04 3.465500119373849136e-15
6.250697854273183475e+04 4.747306024599110502e-15
6.250197566107199964e+04 5.567661803943278123e-15
6.249697277941216453e+04 5.759052355105365728e-15
6.249196989775232942e+04 5.196907426912507223e-15
6.248696701609249430e+04 3.818044145944272081e-15
6.248196413443265192e+04 1.632902700373634181e-15
6.247696125277281681e+04 -1.270127444177805441e-15
6.247195837111298169e+04 -4.729382024740986965e-15
6.246695548945314658e+04 -8.522970281414244267e-15
6.246195260779331147e+04 -1.238943863595621841e-14
6.245694972613347636e+04 -1.605357320280787355e-14
6.245194684447364125e+04 -1.925450858334322962e-14
6.244694396281380614e+04 -2.177286152023144615e-14
6.244194108115396375e+04 -2.345389433939508862e-14
6.243693819949412864e+04 -2.422372084625493388e-14
6.243193531783429353e+04 -2.409670500615496686e-14
6.242693243617445842e+04 -2.317313144351727998e-14
6.242192955451462331e+04 -2.162715549893226670e-14
6.241692667285478819e+04 -1.968659616368817397e-14
6.241192379119495308e+04 -1.760670017324301930e-14
6.240692090953511797e+04 -1.564098068103055238e-14
6.240191802787527558e+04 -1.401255124141598309e-14
6.239691514621544047e+04 -1.288920556809705792e-14
6.239191226455560536e+04 -1.236525361887649607e-14
6.238690938289577025e+04 -1.245204880817220325e-14
6.238190650123593514e+04 -1.307842914172880125e-14
6.237690361957610003e+04 -1.410083235816106542e-14
6.237190073791626492e+04 -1.532182358683834282e-14
6.236689785625642980e+04 -1.651489176219605318e-14
6.236189497459658742e+04 -1.745233398102793645e-14
6.235689209293675231e+04 -1.793306246772362028e-14
6.235188921127691719e+04 -1.780693663625218614e-14
6.234688632961708208e+04 -1.699291926618427207e-14
6.234188344795724697e+04 -1.548869633508569010e-14
6.233688056629741186e+04 -1.337113363163989365e-14
6.233187768463757675e+04 -1.078726058128066359e-14
6.232687480297773436e+04 -7.937236254962508849e-15
6.232187192131789925e+04 -5.051348450517176236e-15
6.231686903965806414e+04 -2.363862917385683785e-15
6.231186615799822903e+04 -8.688032055582663378e-17
6.230686327633839392e+04 1.612649199670392053e-15
6.230186039467855881e+04 2.630292804741365915e-15
6.229685751301872369e+04 2.933654180578466466e-15
6.229185463135888858e+04 2.563511200779471388e-15
6.228685174969904620e+04 1.626409506988070515e-15
6.228184886803921108e+04 2.799812361257919178e-16
6.227684598637937597e+04 -1.287084043352740163e-15
6.227184310471954086e+04 -2.877800334733873713e-15
6.226684022305970575e+04 -4.309344387305841933e-15
6.226183734139987064e+04 -5.432914497583265591e-15
6.225683445974003553e+04 -6.148241519554983461e-15
6.225183157808019314e+04 -6.411529289491667110e-15
6.224682869642035803e+04 -6.235934456684688518e-15
